Tarih,TP_AKONUTSAT1_T42
2000-01-01,
2000-02-01,
2000-03-01,
2000-04-01,
2000-05-01,
2000-06-01,
2000-07-01,
2000-08-01,
2000-09-01,
2000-10-01,
2000-11-01,
2000-12-01,
2001-01-01,
2001-02-01,
2001-03-01,
2001-04-01,
2001-05-01,
2001-06-01,
2001-07-01,
2001-08-01,
2001-09-01,
2001-10-01,
2001-11-01,
2001-12-01,
2002-01-01,
2002-02-01,
2002-03-01,
2002-04-01,
2002-05-01,
2002-06-01,
2002-07-01,
2002-08-01,
2002-09-01,
2002-10-01,
2002-11-01,
2002-12-01,
2003-01-01,
2003-02-01,
2003-03-01,
2003-04-01,
2003-05-01,
2003-06-01,
2003-07-01,
2003-08-01,
2003-09-01,
2003-10-01,
2003-11-01,
2003-12-01,
2004-01-01,
2004-02-01,
2004-03-01,
2004-04-01,
2004-05-01,
2004-06-01,
2004-07-01,
2004-08-01,
2004-09-01,
2004-10-01,
2004-11-01,
2004-12-01,
2005-01-01,
2005-02-01,
2005-03-01,
2005-04-01,
2005-05-01,
2005-06-01,
2005-07-01,
2005-08-01,
2005-09-01,
2005-10-01,
2005-11-01,
2005-12-01,
2006-01-01,
2006-02-01,
2006-03-01,
2006-04-01,
2006-05-01,
2006-06-01,
2006-07-01,
2006-08-01,
2006-09-01,
2006-10-01,
2006-11-01,
2006-12-01,
2007-01-01,
2007-02-01,
2007-03-01,
2007-04-01,
2007-05-01,
2007-06-01,
2007-07-01,
2007-08-01,
2007-09-01,
2007-10-01,
2007-11-01,
2007-12-01,
2008-01-01,
2008-02-01,
2008-03-01,
2008-04-01,
2008-05-01,
2008-06-01,
2008-07-01,
2008-08-01,
2008-09-01,
2008-10-01,
2008-11-01,
2008-12-01,
2009-01-01,
2009-02-01,
2009-03-01,
2009-04-01,
2009-05-01,
2009-06-01,
2009-07-01,
2009-08-01,
2009-09-01,
2009-10-01,
2009-11-01,
2009-12-01,
2010-01-01,
2010-02-01,
2010-03-01,
2010-04-01,
2010-05-01,
2010-06-01,
2010-07-01,
2010-08-01,
2010-09-01,
2010-10-01,
2010-11-01,
2010-12-01,
2011-01-01,
2011-02-01,
2011-03-01,
2011-04-01,
2011-05-01,
2011-06-01,
2011-07-01,
2011-08-01,
2011-09-01,
2011-10-01,
2011-11-01,
2011-12-01,
2012-01-01,
2012-02-01,
2012-03-01,
2012-04-01,
2012-05-01,
2012-06-01,
2012-07-01,
2012-08-01,
2012-09-01,
2012-10-01,
2012-11-01,
2012-12-01,
2013-01-01,621.0
2013-02-01,623.0
2013-03-01,667.0
2013-04-01,718.0
2013-05-01,782.0
2013-06-01,800.0
2013-07-01,966.0
2013-08-01,850.0
2013-09-01,1047.0
2013-10-01,743.0
2013-11-01,915.0
2013-12-01,1107.0
2014-01-01,716.0
2014-02-01,590.0
2014-03-01,699.0
2014-04-01,650.0
2014-05-01,783.0
2014-06-01,875.0
2014-07-01,823.0
2014-08-01,1185.0
2014-09-01,1045.0
2014-10-01,943.0
2014-11-01,963.0
2014-12-01,1365.0
2015-01-01,734.0
2015-02-01,676.0
2015-03-01,938.0
2015-04-01,931.0
2015-05-01,801.0
2015-06-01,902.0
2015-07-01,1005.0
2015-08-01,1168.0
2015-09-01,956.0
2015-10-01,1039.0
2015-11-01,1174.0
2015-12-01,1404.0
2016-01-01,715.0
2016-02-01,878.0
2016-03-01,1302.0
2016-04-01,1066.0
2016-05-01,1452.0
2016-06-01,1041.0
2016-07-01,997.0
2016-08-01,1463.0
2016-09-01,1313.0
2016-10-01,1415.0
2016-11-01,1426.0
2016-12-01,1616.0
2017-01-01,1072.0
2017-02-01,1052.0
2017-03-01,1393.0
2017-04-01,1245.0
2017-05-01,1202.0
2017-06-01,972.0
2017-07-01,1402.0
2017-08-01,1635.0
2017-09-01,1992.0
2017-10-01,1425.0
2017-11-01,1395.0
2017-12-01,1446.0
2018-01-01,1082.0
2018-02-01,1070.0
2018-03-01,1263.0
2018-04-01,1123.0
2018-05-01,1198.0
2018-06-01,1329.0
2018-07-01,1661.0
2018-08-01,1480.0
2018-09-01,1917.0
2018-10-01,2022.0
2018-11-01,1092.0
2018-12-01,1544.0
2019-01-01,883.0
2019-02-01,826.0
2019-03-01,1175.0
2019-04-01,1101.0
2019-05-01,973.0
2019-06-01,754.0
2019-07-01,1324.0
2019-08-01,1658.0
2019-09-01,2006.0
2019-10-01,1812.0
2019-11-01,1585.0
2019-12-01,2237.0
2020-01-01,1188.0
2020-02-01,1174.0
2020-03-01,1174.0
2020-04-01,540.0
2020-05-01,598.0
2020-06-01,1900.0
2020-07-01,2057.0
2020-08-01,2010.0
2020-09-01,1351.0
2020-10-01,1260.0
2020-11-01,1178.0
2020-12-01,1087.0
2021-01-01,708.0
2021-02-01,779.0
2021-03-01,1082.0
2021-04-01,895.0
2021-05-01,586.0
2021-06-01,1370.0
2021-07-01,1185.0
2021-08-01,1672.0
2021-09-01,1579.0
2021-10-01,1472.0
2021-11-01,1851.0
2021-12-01,2193.0
2022-01-01,840.0
2022-02-01,943.0
2022-03-01,1466.0
2022-04-01,1260.0
2022-05-01,1261.0
2022-06-01,1743.0
2022-07-01,1160.0
2022-08-01,1644.0
2022-09-01,1369.0
2022-10-01,1232.0
2022-11-01,1344.0
2022-12-01,2374.0
2023-01-01,985.0
2023-02-01,199.0
2023-03-01,891.0
2023-04-01,796.0
2023-05-01,929.0
2023-06-01,754.0
2023-07-01,980.0
2023-08-01,974.0
2023-09-01,640.0
2023-10-01,715.0
2023-11-01,783.0
2023-12-01,1026.0
2024-01-01,629.0
2024-02-01,729.0
2024-03-01,773.0
2024-04-01,624.0
2024-05-01,921.0
2024-06-01,604.0
2024-07-01,1088.0
2024-08-01,1206.0
2024-09-01,1149.0
2024-10-01,1282.0
2024-11-01,1162.0
2024-12-01,1535.0
2025-01-01,876.0
2025-02-01,865.0
2025-03-01,896.0
2025-04-01,1139.0
2025-05-01,1106.0
2025-06-01,1042.0
2025-07-01,1321.0
2025-08-01,1249.0
2025-09-01,1309.0
