Tarih,TP_KFE_TR52
2000-01-01,
2000-02-01,
2000-03-01,
2000-04-01,
2000-05-01,
2000-06-01,
2000-07-01,
2000-08-01,
2000-09-01,
2000-10-01,
2000-11-01,
2000-12-01,
2001-01-01,
2001-02-01,
2001-03-01,
2001-04-01,
2001-05-01,
2001-06-01,
2001-07-01,
2001-08-01,
2001-09-01,
2001-10-01,
2001-11-01,
2001-12-01,
2002-01-01,
2002-02-01,
2002-03-01,
2002-04-01,
2002-05-01,
2002-06-01,
2002-07-01,
2002-08-01,
2002-09-01,
2002-10-01,
2002-11-01,
2002-12-01,
2003-01-01,
2003-02-01,
2003-03-01,
2003-04-01,
2003-05-01,
2003-06-01,
2003-07-01,
2003-08-01,
2003-09-01,
2003-10-01,
2003-11-01,
2003-12-01,
2004-01-01,
2004-02-01,
2004-03-01,
2004-04-01,
2004-05-01,
2004-06-01,
2004-07-01,
2004-08-01,
2004-09-01,
2004-10-01,
2004-11-01,
2004-12-01,
2005-01-01,
2005-02-01,
2005-03-01,
2005-04-01,
2005-05-01,
2005-06-01,
2005-07-01,
2005-08-01,
2005-09-01,
2005-10-01,
2005-11-01,
2005-12-01,
2006-01-01,
2006-02-01,
2006-03-01,
2006-04-01,
2006-05-01,
2006-06-01,
2006-07-01,
2006-08-01,
2006-09-01,
2006-10-01,
2006-11-01,
2006-12-01,
2007-01-01,
2007-02-01,
2007-03-01,
2007-04-01,
2007-05-01,
2007-06-01,
2007-07-01,
2007-08-01,
2007-09-01,
2007-10-01,
2007-11-01,
2007-12-01,
2008-01-01,
2008-02-01,
2008-03-01,
2008-04-01,
2008-05-01,
2008-06-01,
2008-07-01,
2008-08-01,
2008-09-01,
2008-10-01,
2008-11-01,
2008-12-01,
2009-01-01,
2009-02-01,
2009-03-01,
2009-04-01,
2009-05-01,
2009-06-01,
2009-07-01,
2009-08-01,
2009-09-01,
2009-10-01,
2009-11-01,
2009-12-01,
2010-01-01,4.39
2010-02-01,4.37
2010-03-01,4.29
2010-04-01,4.51
2010-05-01,4.62
2010-06-01,4.59
2010-07-01,4.5
2010-08-01,4.51
2010-09-01,4.56
2010-10-01,4.58
2010-11-01,4.64
2010-12-01,4.77
2011-01-01,4.66
2011-02-01,4.73
2011-03-01,4.87
2011-04-01,4.79
2011-05-01,4.9
2011-06-01,4.95
2011-07-01,4.96
2011-08-01,4.98
2011-09-01,4.9
2011-10-01,4.95
2011-11-01,5.06
2011-12-01,5.09
2012-01-01,5.29
2012-02-01,5.38
2012-03-01,5.37
2012-04-01,5.47
2012-05-01,5.49
2012-06-01,5.47
2012-07-01,5.57
2012-08-01,5.66
2012-09-01,5.63
2012-10-01,5.7
2012-11-01,5.71
2012-12-01,5.77
2013-01-01,5.81
2013-02-01,5.93
2013-03-01,5.87
2013-04-01,5.91
2013-05-01,6.03
2013-06-01,6.15
2013-07-01,6.22
2013-08-01,6.24
2013-09-01,6.31
2013-10-01,6.36
2013-11-01,6.38
2013-12-01,6.36
2014-01-01,6.41
2014-02-01,6.51
2014-03-01,6.63
2014-04-01,6.54
2014-05-01,6.74
2014-06-01,6.76
2014-07-01,6.86
2014-08-01,7.02
2014-09-01,7.04
2014-10-01,7.07
2014-11-01,7.13
2014-12-01,7.22
2015-01-01,7.31
2015-02-01,7.39
2015-03-01,7.47
2015-04-01,7.57
2015-05-01,7.39
2015-06-01,7.72
2015-07-01,8.03
2015-08-01,7.76
2015-09-01,7.86
2015-10-01,7.86
2015-11-01,7.99
2015-12-01,8.14
2016-01-01,8.11
2016-02-01,8.28
2016-03-01,8.32
2016-04-01,8.45
2016-05-01,8.5
2016-06-01,8.59
2016-07-01,8.63
2016-08-01,8.71
2016-09-01,8.92
2016-10-01,8.86
2016-11-01,9.02
2016-12-01,9.09
2017-01-01,9.22
2017-02-01,9.31
2017-03-01,9.48
2017-04-01,9.45
2017-05-01,9.62
2017-06-01,9.68
2017-07-01,9.72
2017-08-01,9.68
2017-09-01,9.81
2017-10-01,9.92
2017-11-01,9.95
2017-12-01,10.18
2018-01-01,10.22
2018-02-01,10.41
2018-03-01,10.48
2018-04-01,10.59
2018-05-01,10.74
2018-06-01,10.76
2018-07-01,10.82
2018-08-01,10.92
2018-09-01,10.8
2018-10-01,10.96
2018-11-01,10.47
2018-12-01,10.78
2019-01-01,10.7
2019-02-01,10.84
2019-03-01,11.04
2019-04-01,11.07
2019-05-01,11.46
2019-06-01,11.02
2019-07-01,10.92
2019-08-01,11.61
2019-09-01,11.7
2019-10-01,11.83
2019-11-01,11.83
2019-12-01,12.05
2020-01-01,12.36
2020-02-01,12.64
2020-03-01,12.85
2020-04-01,12.88
2020-05-01,13.1
2020-06-01,13.96
2020-07-01,14.47
2020-08-01,14.77
2020-09-01,14.95
2020-10-01,14.9
2020-11-01,15.62
2020-12-01,16.07
2021-01-01,16.16
2021-02-01,16.5
2021-03-01,16.99
2021-04-01,17.35
2021-05-01,17.94
2021-06-01,18.6
2021-07-01,19.48
2021-08-01,19.58
2021-09-01,20.76
2021-10-01,21.83
2021-11-01,23.22
2021-12-01,26.61
2022-01-01,29.63
2022-02-01,31.52
2022-03-01,35.31
2022-04-01,38.42
2022-05-01,42.21
2022-06-01,47.31
2022-07-01,50.38
2022-08-01,53.94
2022-09-01,57.19
2022-10-01,59.4
2022-11-01,62.01
2022-12-01,62.42
2023-01-01,70.17
2023-02-01,73.6
2023-03-01,81.04
2023-04-01,84.92
2023-05-01,88.57
2023-06-01,96.42
2023-07-01,100.44
2023-08-01,110.31
2023-09-01,118.02
2023-10-01,123.39
2023-11-01,126.82
2023-12-01,126.28
2024-01-01,134.4
2024-02-01,133.72
2024-03-01,137.19
2024-04-01,142.11
2024-05-01,144.95
2024-06-01,149.41
2024-07-01,146.93
2024-08-01,151.85
2024-09-01,150.45
2024-10-01,154.47
2024-11-01,163.03
2024-12-01,165.65
2025-01-01,171.51
2025-02-01,176.83
2025-03-01,176.2
2025-04-01,180.76
2025-05-01,182.7
2025-06-01,193.25
2025-07-01,192.89
2025-08-01,194.92
2025-09-01,199.83
