Tarih,TP_KFE_TR63
2000-01-01,
2000-02-01,
2000-03-01,
2000-04-01,
2000-05-01,
2000-06-01,
2000-07-01,
2000-08-01,
2000-09-01,
2000-10-01,
2000-11-01,
2000-12-01,
2001-01-01,
2001-02-01,
2001-03-01,
2001-04-01,
2001-05-01,
2001-06-01,
2001-07-01,
2001-08-01,
2001-09-01,
2001-10-01,
2001-11-01,
2001-12-01,
2002-01-01,
2002-02-01,
2002-03-01,
2002-04-01,
2002-05-01,
2002-06-01,
2002-07-01,
2002-08-01,
2002-09-01,
2002-10-01,
2002-11-01,
2002-12-01,
2003-01-01,
2003-02-01,
2003-03-01,
2003-04-01,
2003-05-01,
2003-06-01,
2003-07-01,
2003-08-01,
2003-09-01,
2003-10-01,
2003-11-01,
2003-12-01,
2004-01-01,
2004-02-01,
2004-03-01,
2004-04-01,
2004-05-01,
2004-06-01,
2004-07-01,
2004-08-01,
2004-09-01,
2004-10-01,
2004-11-01,
2004-12-01,
2005-01-01,
2005-02-01,
2005-03-01,
2005-04-01,
2005-05-01,
2005-06-01,
2005-07-01,
2005-08-01,
2005-09-01,
2005-10-01,
2005-11-01,
2005-12-01,
2006-01-01,
2006-02-01,
2006-03-01,
2006-04-01,
2006-05-01,
2006-06-01,
2006-07-01,
2006-08-01,
2006-09-01,
2006-10-01,
2006-11-01,
2006-12-01,
2007-01-01,
2007-02-01,
2007-03-01,
2007-04-01,
2007-05-01,
2007-06-01,
2007-07-01,
2007-08-01,
2007-09-01,
2007-10-01,
2007-11-01,
2007-12-01,
2008-01-01,
2008-02-01,
2008-03-01,
2008-04-01,
2008-05-01,
2008-06-01,
2008-07-01,
2008-08-01,
2008-09-01,
2008-10-01,
2008-11-01,
2008-12-01,
2009-01-01,
2009-02-01,
2009-03-01,
2009-04-01,
2009-05-01,
2009-06-01,
2009-07-01,
2009-08-01,
2009-09-01,
2009-10-01,
2009-11-01,
2009-12-01,
2010-01-01,5.33
2010-02-01,5.48
2010-03-01,5.56
2010-04-01,5.43
2010-05-01,5.68
2010-06-01,5.6
2010-07-01,5.55
2010-08-01,5.56
2010-09-01,5.75
2010-10-01,5.66
2010-11-01,5.68
2010-12-01,5.68
2011-01-01,5.7
2011-02-01,5.76
2011-03-01,5.79
2011-04-01,5.81
2011-05-01,5.93
2011-06-01,5.98
2011-07-01,5.96
2011-08-01,5.94
2011-09-01,6.14
2011-10-01,6.17
2011-11-01,6.24
2011-12-01,6.31
2012-01-01,6.26
2012-02-01,6.34
2012-03-01,6.33
2012-04-01,6.32
2012-05-01,6.51
2012-06-01,6.42
2012-07-01,6.34
2012-08-01,6.43
2012-09-01,6.46
2012-10-01,6.43
2012-11-01,6.53
2012-12-01,6.62
2013-01-01,6.65
2013-02-01,6.67
2013-03-01,6.74
2013-04-01,6.68
2013-05-01,6.65
2013-06-01,6.86
2013-07-01,6.97
2013-08-01,6.86
2013-09-01,7.06
2013-10-01,6.89
2013-11-01,6.93
2013-12-01,7.17
2014-01-01,7.36
2014-02-01,7.06
2014-03-01,7.33
2014-04-01,7.35
2014-05-01,7.51
2014-06-01,7.62
2014-07-01,7.67
2014-08-01,7.77
2014-09-01,7.96
2014-10-01,8.09
2014-11-01,8.01
2014-12-01,8.11
2015-01-01,8.07
2015-02-01,8.35
2015-03-01,8.56
2015-04-01,8.35
2015-05-01,8.48
2015-06-01,8.56
2015-07-01,8.68
2015-08-01,8.52
2015-09-01,8.78
2015-10-01,8.73
2015-11-01,8.71
2015-12-01,8.7
2016-01-01,8.93
2016-02-01,8.9
2016-03-01,8.97
2016-04-01,8.95
2016-05-01,9.12
2016-06-01,9.09
2016-07-01,9.19
2016-08-01,9.08
2016-09-01,9.3
2016-10-01,9.4
2016-11-01,9.31
2016-12-01,9.28
2017-01-01,9.38
2017-02-01,9.43
2017-03-01,9.53
2017-04-01,9.58
2017-05-01,9.63
2017-06-01,9.8
2017-07-01,9.87
2017-08-01,9.78
2017-09-01,10.06
2017-10-01,9.96
2017-11-01,9.97
2017-12-01,10.02
2018-01-01,10.26
2018-02-01,10.23
2018-03-01,10.46
2018-04-01,10.3
2018-05-01,10.66
2018-06-01,10.66
2018-07-01,10.62
2018-08-01,10.64
2018-09-01,10.42
2018-10-01,10.64
2018-11-01,10.9
2018-12-01,10.37
2019-01-01,10.7
2019-02-01,10.94
2019-03-01,11.06
2019-04-01,11.07
2019-05-01,11.13
2019-06-01,11.36
2019-07-01,10.99
2019-08-01,11.83
2019-09-01,11.87
2019-10-01,12.05
2019-11-01,12.25
2019-12-01,12.33
2020-01-01,12.73
2020-02-01,12.89
2020-03-01,13.19
2020-04-01,13.49
2020-05-01,13.54
2020-06-01,14.74
2020-07-01,15.25
2020-08-01,15.56
2020-09-01,15.74
2020-10-01,15.9
2020-11-01,16.71
2020-12-01,17.12
2021-01-01,16.69
2021-02-01,17.77
2021-03-01,18.28
2021-04-01,18.81
2021-05-01,19.25
2021-06-01,19.88
2021-07-01,21.24
2021-08-01,21.44
2021-09-01,22.37
2021-10-01,22.87
2021-11-01,24.73
2021-12-01,27.97
2022-01-01,30.81
2022-02-01,32.14
2022-03-01,35.21
2022-04-01,39.97
2022-05-01,43.49
2022-06-01,48.62
2022-07-01,50.09
2022-08-01,54.67
2022-09-01,57.18
2022-10-01,58.47
2022-11-01,60.71
2022-12-01,63.91
2023-01-01,70.78
2023-02-01,70.78
2023-03-01,70.78
2023-04-01,80.31
2023-05-01,85.3
2023-06-01,95.6
2023-07-01,101.55
2023-08-01,113.45
2023-09-01,126.18
2023-10-01,122.88
2023-11-01,133.69
2023-12-01,128.7
2024-01-01,141.98
2024-02-01,135.93
2024-03-01,140.1
2024-04-01,146.78
2024-05-01,156.35
2024-06-01,151.0
2024-07-01,150.08
2024-08-01,159.69
2024-09-01,161.94
2024-10-01,162.21
2024-11-01,169.86
2024-12-01,170.78
2025-01-01,177.05
2025-02-01,179.34
2025-03-01,184.19
2025-04-01,183.69
2025-05-01,188.04
2025-06-01,183.32
2025-07-01,197.01
2025-08-01,202.87
2025-09-01,198.57
